time angle speed
0 0 0
0.0047266483306884766 0 0
0.010407686233520508 0 2
0.01641845703125 0 2
0.01979970932006836 0 7
0.025591611862182617 1 42
0.03142547607421875 2 12
0.03586292266845703 2 19
0.039414167404174805 3 67
0.04318380355834961 4 129
0.04766440391540527 5 184
0.05325460433959961 6 194
0.05794978141784668 7 199
0.06168222427368164 8 209
0.06598401069641113 9 235
0.06951904296875 11 257
0.07608151435852051 12 264
0.07984519004821777 13 279
0.08384394645690918 14 288
0.08793044090270996 16 298
0.09168744087219238 18 304
0.09758234024047852 19 314
0.10134172439575195 20 321
0.10565948486328125 22 335
0.11148357391357422 24 339
0.11594033241271973 25 351
0.11959052085876465 26 355
0.12334632873535156 28 364
0.12995433807373047 30 369
0.1344618797302246 32 375
0.1384289264678955 34 375
0.141937255859375 35 379
0.1465139389038086 36 382
0.1520676612854004 39 387
0.15677809715270996 40 388
0.16043996810913086 42 394
0.16501092910766602 44 393
0.16863679885864258 45 397
0.17536425590515137 48 396
0.17895793914794922 49 399
0.18276286125183105 52 406
0.1872549057006836 54 409
0.1909036636352539 54 411
0.19681596755981445 57 412
0.20048975944519043 58 413
0.20478129386901855 60 412
0.210662841796875 62 415
0.21522927284240723 65 413
0.21882939338684082 66 416
0.2226102352142334 68 415
0.22710776329040527 69 417
0.23275113105773926 72 419
0.23784637451171875 74 422
0.24237608909606934 76 424
0.2468252182006836 78 425
0.25249648094177246 80 427
0.2570488452911377 82 428
0.26062512397766113 84 428
0.26529693603515625 86 424
0.2689800262451172 87 424
0.27480101585388184 90 424
0.27864813804626465 91 422
0.28240323066711426 93 426
0.2887997627258301 96 427
0.2925865650177002 97 429
0.2972853183746338 100 430
0.30094408988952637 101 433
0.3053584098815918 104 431
0.3111889362335205 105 430
0.3155543804168701 108 432
0.31914258003234863 110 430
0.3228890895843506 111 429
0.3273940086364746 113 430
0.3331339359283447 116 429
0.33763766288757324 117 429
0.3413963317871094 119 431
0.34569621086120605 121 432
0.3492569923400879 122 433
0.3554813861846924 125 433
0.35904455184936523 127 430
0.36280298233032227 129 434
0.3690931797027588 131 433
0.3728513717651367 133 430
0.3773338794708252 134 429
0.38098740577697754 135 429
0.385422945022583 139 430
0.39125895500183105 140 428
0.39572572708129883 142 433
0.39928412437438965 146 435
0.40787172317504883 148 438
0.41167521476745605 150 434
0.4178168773651123 152 433
0.4215681552886963 154 432
0.4274923801422119 156 434
0.43127965927124023 158 433
0.4355611801147461 160 430
0.4413750171661377 162 431
0.4457218647003174 164 429
0.44925451278686523 166 430
0.45301389694213867 167 431
0.45749592781066895 170 433
0.4631199836730957 172 430
0.46759700775146484 174 434
0.4713718891143799 175 439
0.47584962844848633 177 436
0.4794020652770996 180 433
0.4859623908996582 181 432
0.4895927906036377 183 434
0.4937398433685303 185 428
0.49791383743286133 186 429
0.5016684532165527 189 430
0.5075178146362305 191 431
0.5112619400024414 192 432
0.5155601501464844 195 433
0.521385669708252 197 433
0.5258805751800537 198 435
0.5294191837310791 200 433
0.5331392288208008 202 433
0.5377321243286133 204 432
0.5433285236358643 206 433
0.5477995872497559 208 432
0.551546573638916 210 433
0.555884599685669 212 431
0.5594146251678467 214 433
0.5659520626068115 216 435
0.5694985389709473 218 435
0.573265790939331 219 436
0.5778768062591553 221 433
0.5844621658325195 224 436
0.588031530380249 226 434
0.591829776763916 227 431
0.5965495109558105 229 430
0.6000750064849854 230 431
0.6063582897186279 233 430
0.6098177433013916 235 431
0.6138596534729004 237 432
0.6200253963470459 239 433
0.6245498657226562 241 435
0.628319263458252 243 434
0.6318609714508057 244 433
0.6364095211029053 246 434
0.6419656276702881 250 434
0.6472997665405273 252 434
0.6509473323822021 252 433
0.6555366516113281 255 432
0.659116268157959 258 430
0.6656816005706787 259 432
0.6692276000976562 261 430
0.6730077266693115 263 433
0.6776108741760254 264 434
0.6813774108886719 267 435
0.687251091003418 269 437
0.69091796875 270 434
0.6953155994415283 273 436
0.7010741233825684 274 434
0.7054471969604492 276 432
0.7090182304382324 278 431
0.7127785682678223 280 430
0.7174456119537354 282 429
0.7230589389801025 284 429
0.7275326251983643 286 431
0.7312870025634766 288 433
0.7355597019195557 290 435
0.741358757019043 292 436
0.7456936836242676 294 437
0.7492311000823975 296 437
0.7529964447021484 298 435
0.7574996948242188 299 435
0.7631113529205322 302 432
0.7675876617431641 304 433
0.7713379859924316 305 430
0.7757906913757324 307 430
0.7793619632720947 308 432
0.785578727722168 311 434
0.7892868518829346 313 434
0.7930278778076172 315 435
0.7993614673614502 319 435
0.8076632022857666 321 435
0.8113970756530762 322 434
0.815887451171875 324 435
0.8194119930267334 327 432
0.8260865211486816 328 431
0.8297634124755859 330 433
0.833733081817627 332 433
0.8380222320556641 334 431
0.8417847156524658 336 433
0.8476159572601318 338 434
0.8513739109039307 340 435
0.8556947708129883 342 432
0.8615090847015381 344 433
0.8657979965209961 346 434
0.8693618774414062 348 434
0.8731429576873779 350 433
0.8775911331176758 352 435
0.8832247257232666 354 433
0.8876664638519287 356 432
0.8913772106170654 357 433
0.8958706855773926 359 434
0.8994042873382568 362 431
0.905935525894165 363 435
0.9094765186309814 365 434
0.9132275581359863 367 433
0.9179584980010986 368 435
0.921717643737793 371 435
0.9275484085083008 373 433
0.9313430786132812 374 432
0.9358730316162109 376 434
0.9416413307189941 379 430
0.9459807872772217 380 429
0.9495358467102051 382 432
0.9532661437988281 384 433
0.9579014778137207 386 433
0.9644885063171387 388 437
0.9680399894714355 390 438
0.9718029499053955 392 436
0.9763362407684326 394 437
0.9797616004943848 396 433
0.985680103302002 398 434
0.989262580871582 400 430
0.9930810928344727 402 428
0.9994175434112549 404 431
