time angle speed
0 0 0
0.0024139881134033203 0 0
0.007075309753417969 0 0
0.012056589126586914 0 0
0.016526460647583008 0 -2
0.02015089988708496 0 -2
0.025046586990356445 -1 -6
0.030842304229736328 -1 -13
0.03515481948852539 -1 -29
0.0387723445892334 -2 -86
0.04251217842102051 -3 -17
0.04695534706115723 -3 -49
0.05258512496948242 -4 -108
0.057074785232543945 -5 -125
0.060854434967041016 -5 -151
0.0651404857635498 -6 -163
0.06871342658996582 -7 -180
0.07574033737182617 -8 -187
0.07919430732727051 -9 -195
0.08317446708679199 -10 -190
0.08768057823181152 -11 -195
0.09121465682983398 -12 -208
0.09707260131835938 -13 -215
0.1008141040802002 -14 -220
0.10509896278381348 -15 -229
0.11091804504394531 -16 -231
0.11533069610595703 -17 -234
0.11885547637939453 -18 -239
0.1226046085357666 -19 -241
0.12705731391906738 -21 -244
0.13268136978149414 -22 -249
0.13717055320739746 -23 -251
0.1409294605255127 -24 -254
0.14542651176452637 -25 -256
0.1491107940673828 -26 -258
0.15581917762756348 -27 -260
0.1593763828277588 -28 -260
0.16387486457824707 -29 -264
0.16742348670959473 -31 -267
0.17121171951293945 -32 -265
0.17702960968017578 -33 -269
0.18075823783874512 -34 -272
0.18702149391174316 -36 -269
0.19079804420471191 -37 -275
0.195082426071167 -38 -276
0.19860410690307617 -39 -273
0.2023928165435791 -41 -276
0.20926809310913086 -42 -277
0.21372389793395996 -43 -276
0.21728968620300293 -44 -271
0.22105193138122559 -45 -276
0.22536587715148926 -47 -274
0.23121905326843262 -48 -274
0.23581838607788086 -49 -277
0.23932194709777832 -50 -276
0.24378132820129395 -51 -275
0.24734926223754883 -53 -278
0.2539699077606201 -54 -278
0.2577834129333496 -55 -277
0.2613332271575928 -57 -281
0.26617431640625 -57 -281
0.269822359085083 -59 -280
0.27570295333862305 -61 -282
0.28392505645751953 -63 -282
0.2899355888366699 -64 -282
0.2946176528930664 -66 -282
0.2982180118560791 -67 -285
0.3019731044769287 -68 -280
0.30661439895629883 -69 -282
0.3122861385345459 -71 -279
0.3168182373046875 -72 -278
0.3205544948577881 -73 -276
0.32505249977111816 -75 -280
0.32869505882263184 -76 -281
0.33493590354919434 -77 -281
0.33853721618652344 -79 -282
0.34232449531555176 -79 -281
0.34870314598083496 -81 -282
0.35249757766723633 -83 -284
0.35698986053466797 -83 -283
0.3607463836669922 -85 -282
0.3650681972503662 -86 -284
0.370927095413208 -87 -283
0.37524867057800293 -89 -283
0.3787860870361328 -90 -283
0.38254761695861816 -91 -285
0.387204647064209 -93 -284
0.39373278617858887 -94 -283
0.3973355293273926 -95 -281
0.40124058723449707 -96 -279
0.4058098793029785 -97 -278
0.40930986404418945 -99 -281
0.4160501956939697 -100 -280
0.4197118282318115 -101 -281
0.42397427558898926 -102 -283
0.42777514457702637 -103 -282
0.43134427070617676 -105 -281
0.43717360496520996 -106 -280
0.4409489631652832 -107 -285
0.4468419551849365 -109 -287
0.45063233375549316 -110 -284
0.4549214839935303 -111 -287
0.460756778717041 -113 -285
0.46523094177246094 -114 -282
0.4687678813934326 -115 -282
0.4725303649902344 -117 -283
0.47702836990356445 -117 -282
0.48313450813293457 -119 -281
0.48723793029785156 -120 -280
0.4910159111022949 -121 -280
0.4953267574310303 -123 -279
0.4988892078399658 -124 -279
0.5050773620605469 -125 -278
0.5086338520050049 -127 -282
0.5123879909515381 -128 -284
0.5186598300933838 -129 -286
0.5224096775054932 -131 -283
0.5269126892089844 -132 -285
0.5306715965270996 -133 -288
0.5349798202514648 -135 -284
0.5407912731170654 -136 -285
0.5450963973999023 -137 -282
0.5486795902252197 -138 -284
0.5524435043334961 -139 -282
0.5569181442260742 -141 -282
0.5625786781311035 -142 -281
0.567206621170044 -143 -282
0.5710158348083496 -144 -279
0.5753731727600098 -145 -280
0.5789308547973633 -147 -280
0.5857644081115723 -148 -281
0.5892715454101562 -149 -280
0.5937252044677734 -150 -280
0.5977299213409424 -151 -285
0.6041135787963867 -153 -281
0.6079442501068115 -154 -283
0.6116809844970703 -155 -285
0.6161408424377441 -157 -284
0.6197953224182129 -158 -280
0.6258580684661865 -159 -287
0.6293900012969971 -161 -285
0.6339051723480225 -162 -284
0.639801025390625 -163 -281
0.6440865993499756 -165 -283
0.6478703022003174 -165 -279
0.6513996124267578 -167 -280
0.6561133861541748 -168 -281
0.6618506908416748 -169 -279
0.666330099105835 -171 -280
0.6699986457824707 -172 -283
0.6745033264160156 -173 -281
0.6809954643249512 -176 -284
0.6871340274810791 -177 -283
0.6931707859039307 -179 -284
0.6974349021911621 -180 -285
0.7012009620666504 -181 -284
0.7059605121612549 -182 -283
0.7097032070159912 -183 -285
0.7153210639953613 -185 -282
0.7189223766326904 -186 -282
0.7226614952087402 -187 -282
0.7280356884002686 -188 -282
0.7338573932647705 -190 -283
0.7374343872070312 -191 -283
0.7412176132202148 -192 -282
0.7480013370513916 -194 -280
0.7517943382263184 -195 -281
0.7563059329986572 -196 -278
0.7599296569824219 -197 -281
0.7643828392028809 -198 -282
0.7700233459472656 -200 -283
0.7745707035064697 -202 -285
0.7781784534454346 -202 -284
0.7819383144378662 -203 -284
0.786578893661499 -205 -281
0.7922418117523193 -207 -281
0.796729564666748 -208 -281
0.8004021644592285 -209 -284
0.80495285987854 -210 -287
0.8085067272186279 -211 -284
0.8145294189453125 -213 -279
0.8181593418121338 -214 -282
0.8219113349914551 -215 -279
0.8283114433288574 -217 -280
0.832115888595581 -218 -284
0.8366563320159912 -219 -281
0.8403036594390869 -220 -281
0.8447144031524658 -221 -284
0.8505187034606934 -223 -283
0.8550169467926025 -224 -281
0.8585927486419678 -225 -285
0.8623638153076172 -227 -283
0.8670308589935303 -228 -284
0.8726723194122314 -229 -285
0.8771717548370361 -231 -281
0.8809294700622559 -232 -285
0.8852567672729492 -233 -282
0.8888094425201416 -235 -285
0.8954088687896729 -236 -281
0.8989734649658203 -237 -284
0.9030892848968506 -238 -279
0.9071998596191406 -239 -283
0.9110631942749023 -241 -283
0.9169528484344482 -242 -281
0.9207570552825928 -243 -281
0.9252440929412842 -245 -280
0.9310860633850098 -246 -281
0.9354121685028076 -247 -280
0.9389698505401611 -248 -281
0.9431107044219971 -249 -283
0.9472136497497559 -251 -285
0.9537715911865234 -252 -285
0.9573225975036621 -253 -285
0.9610962867736816 -255 -285
0.9654021263122559 -255 -286
0.9689426422119141 -257 -284
0.9758121967315674 -259 -285
0.9793505668640137 -259 -282
0.9838404655456543 -261 -283
0.987858772277832 -262 -279
0.9913773536682129 -263 -279
0.9972648620605469 -265 -277
