time angle speed
0 0 0
0.0024399757385253906 0 0
0.007318019866943359 0 0
0.012293338775634766 0 -2
0.01676774024963379 0 -2
0.020528554916381836 -1 -55
0.025140762329101562 -2 -21
0.03096604347229004 -3 -88
0.035272836685180664 -4 -33
0.038899898529052734 -5 -114
0.04265761375427246 -7 -249
0.047128915786743164 -9 -288
0.05278801918029785 -10 -334
0.05729079246520996 -12 -380
0.061018943786621094 -14 -386
0.0654454231262207 -16 -422
0.06899070739746094 -19 -462
0.07584571838378906 -21 -484
0.07928824424743652 -23 -502
0.08329939842224121 -26 -526
0.08738446235656738 -28 -555
0.0911402702331543 -32 -586
0.09699106216430664 -34 -598
0.10072469711303711 -35 -615
0.10506081581115723 -40 -636
0.1109161376953125 -43 -648
0.11532378196716309 -46 -664
0.11891484260559082 -49 -672
0.12266349792480469 -52 -690
0.1273033618927002 -56 -704
0.13336443901062012 -59 -714
0.13793134689331055 -62 -721
0.14145135879516602 -65 -731
0.1460268497467041 -68 -737
0.14952826499938965 -72 -748
0.15630698204040527 -76 -758
0.16002535820007324 -78 -765
0.1642897129058838 -82 -773
0.16812682151794434 -85 -782
0.17329812049865723 -90 -785
0.17747879028320312 -93 -792
0.18123483657836914 -96 -796
0.18713831901550293 -101 -801
0.1909024715423584 -104 -805
0.19523930549621582 -107 -814
0.2010636329650879 -112 -815
0.20541119575500488 -116 -818
0.20900869369506836 -119 -819
0.21276021003723145 -122 -823
0.21721601486206055 -126 -826
0.22285676002502441 -130 -832
0.22734618186950684 -134 -835
0.2311086654663086 -137 -838
0.2354273796081543 -140 -838
0.23896574974060059 -144 -839
0.2451775074005127 -149 -842
0.24873590469360352 -152 -845
0.2525055408477783 -156 -849
0.25892210006713867 -161 -852
0.26276183128356934 -164 -851
0.2673981189727783 -168 -850
0.27115583419799805 -171 -850
0.275454044342041 -176 -855
0.2812974452972412 -180 -858
0.28583788871765137 -183 -860
0.2893106937408447 -187 -859
0.2933194637298584 -190 -862
0.2974221706390381 -195 -862
0.30396223068237305 -199 -859
0.3079335689544678 -202 -862
0.3114495277404785 -206 -862
0.31605958938598633 -209 -866
0.31957387924194336 -214 -861
0.32649707794189453 -218 -864
0.3300948143005371 -221 -866
0.33457279205322266 -225 -869
0.3381636142730713 -228 -871
0.34336304664611816 -237 -868
0.35129237174987793 -240 -870
0.3559911251068115 -244 -870
0.3594839572906494 -249 -871
0.3666398525238037 -253 -872
0.3702585697174072 -256 -872
0.3748776912689209 -261 -870
0.378467321395874 -263 -870
0.38431262969970703 -268 -871
0.3881046772003174 -272 -872
0.39159369468688965 -275 -876
0.39752197265625 -280 -877
0.4013793468475342 -284 -874
0.4059567451477051 -288 -870
0.411513090133667 -293 -870
0.41609835624694824 -296 -875
0.4196004867553711 -300 -878
0.4241001605987549 -303 -876
0.4280850887298584 -307 -873
0.43468451499938965 -312 -870
0.4382767677307129 -316 -875
0.4420332908630371 -319 -875
0.4465165138244629 -322 -878
0.45009422302246094 -326 -878
0.4559969902038574 -331 -875
0.45949840545654297 -335 -872
0.46592187881469727 -340 -876
0.46948814392089844 -344 -874
0.47393202781677246 -347 -876
0.4774808883666992 -351 -879
0.4813525676727295 -354 -876
0.4881627559661865 -359 -876
0.49195408821105957 -363 -874
0.49643468856811523 -366 -876
0.5000040531158447 -370 -878
0.5042879581451416 -374 -880
0.5101122856140137 -378 -877
0.5146684646606445 -382 -876
0.5182652473449707 -386 -873
0.5220375061035156 -389 -877
0.5267179012298584 -393 -877
0.5324094295501709 -400 -879
0.5368752479553223 -403 -879
0.540565013885498 -405 -875
0.5451133251190186 -410 -872
0.5487046241760254 -414 -879
0.5547714233398438 -419 -881
0.5583546161651611 -421 -880
0.5621068477630615 -424 -879
0.5684769153594971 -430 -877
0.5723533630371094 -435 -876
0.5768656730651855 -438 -877
0.5805690288543701 -440 -880
0.5849471092224121 -446 -881
0.5907888412475586 -451 -879
0.5950906276702881 -454 -879
0.5986840724945068 -458 -874
0.6025004386901855 -461 -877
0.6071593761444092 -466 -880
0.6128110885620117 -470 -883
0.6172990798950195 -474 -880
0.6210553646087646 -477 -877
0.6253511905670166 -480 -878
0.628899097442627 -486 -875
0.635490894317627 -489 -879
0.6390395164489746 -493 -878
0.6427874565124512 -496 -882
0.6472511291503906 -500 -877
0.650991678237915 -505 -877
0.6569952964782715 -509 -877
0.6607334613800049 -510 -879
0.6652250289916992 -518 -881
0.6711826324462891 -521 -881
0.6754984855651855 -524 -876
0.6790561676025391 -528 -875
0.6828017234802246 -532 -875
0.6872856616973877 -537 -881
0.693303108215332 -540 -882
0.6973726749420166 -544 -882
0.7011327743530273 -547 -878
0.7054424285888672 -551 -880
0.7089927196502686 -556 -873
0.7155933380126953 -560 -878
0.7193117141723633 -563 -881
0.7233364582061768 -567 -881
0.7279090881347656 -570 -878
0.7326874732971191 -576 -877
0.737389326095581 -579 -875
0.7411365509033203 -582 -881
0.7484116554260254 -588 -880
0.7533085346221924 -593 -884
0.757537841796875 -596 -879
0.7612860202789307 -600 -877
0.7660083770751953 -604 -875
0.7695555686950684 -607 -878
0.7740528583526611 -611 -883
0.7779881954193115 -614 -881
0.7816047668457031 -620 -880
0.7871944904327393 -623 -879
0.7909305095672607 -626 -878
0.7960729598999023 -630 -880
0.799835205078125 -634 -879
0.8041088581085205 -637 -880
0.8078701496124268 -640 -881
0.811408519744873 -644 -875
0.8159441947937012 -648 -882
0.8194613456726074 -651 -880
0.8238935470581055 -654 -878
0.8274815082550049 -658 -877
0.8312482833862305 -664 -881
0.8367969989776611 -667 -877
0.8404614925384521 -668 -879
0.8450419902801514 -674 -876
0.84859299659729 -678 -879
0.8523142337799072 -681 -879
0.8568150997161865 -684 -882
0.8604652881622314 -686 -879
0.8648676872253418 -692 -882
0.868427038192749 -693 -877
0.8721597194671631 -698 -879
0.8766822814941406 -700 -877
0.8802645206451416 -704 -880
0.885420560836792 -709 -879
0.8889875411987305 -712 -883
0.892749547958374 -716 -881
0.8973057270050049 -720 -877
0.901066780090332 -723 -875
0.9055144786834717 -727 -880
0.9090666770935059 -730 -879
0.9127991199493408 -734 -880
0.9174704551696777 -737 -880
0.9212329387664795 -741 -877
0.9255547523498535 -744 -875
0.9291260242462158 -748 -877
0.9332776069641113 -753 -879
0.9384253025054932 -755 -881
0.9421911239624023 -760 -882
0.9467079639434814 -762 -878
0.9502909183502197 -765 -879
0.9547734260559082 -770 -877
0.9583773612976074 -772 -880
0.9621613025665283 -778 -882
0.9668259620666504 -781 -883
0.9704935550689697 -783 -883
0.974895715713501 -788 -881
0.9784431457519531 -790 -879
0.982203483581543 -795 -880
0.9875023365020752 -799 -877
0.9912927150726318 -802 -882
0.995603084564209 -806 -881
0.9992866516113281 -810 -880
