time angle speed
0 0 0
0.00467371940612793 0 0
0.010116815567016602 0 0
0.013614892959594727 0 0
0.01732778549194336 0 2
0.02184891700744629 1 19
0.03749895095825195 4 34
0.04262208938598633 6 129
0.0461118221282959 8 270
0.052217721939086914 9 275
0.056128501892089844 11 332
0.0631866455078125 16 392
0.07494187355041504 18 411
0.07963824272155762 21 443
0.08321714401245117 23 451
0.08696842193603516 25 481
0.09159350395202637 27 490
0.09729766845703125 30 511
0.10177731513977051 32 528
0.10555696487426758 34 534
0.10986137390136719 37 545
0.11342573165893555 40 562
0.12012028694152832 42 566
0.12367415428161621 45 574
0.1274278163909912 48 584
0.13187718391418457 50 595
0.13573861122131348 54 603
0.14160752296447754 56 611
0.14535880088806152 57 619
0.14967131614685059 62 622
0.15549135208129883 65 629
0.1597917079925537 68 634
0.16338062286376953 70 637
0.16715216636657715 73 644
0.17163467407226562 77 653
0.17725133895874023 79 657
0.1819627285003662 82 660
0.1857013702392578 85 661
0.1900334358215332 87 668
0.19359540939331055 91 670
0.20063424110412598 94 671
0.20414495468139648 97 672
0.2085890769958496 100 677
0.21213936805725098 102 682
0.2159125804901123 106 686
0.2217864990234375 109 687
0.22554850578308105 112 687
0.22995829582214355 116 687
0.2358260154724121 119 689
0.2405378818511963 122 686
0.24397015571594238 124 698
0.24798798561096191 127 697
0.2521183490753174 132 699
0.2586839199066162 134 700
0.2622263431549072 137 700
0.26601481437683105 140 699
0.27060842514038086 143 699
0.27617549896240234 147 700
0.2809023857116699 150 706
0.28461503982543945 152 709
0.28891730308532715 155 708
0.29270052909851074 158 708
0.2994413375854492 164 707
0.30303049087524414 165 706
0.3067891597747803 170 706
0.31148433685302734 172 709
0.3151516914367676 174 708
0.32108330726623535 178 714
0.3246898651123047 181 712
0.32895803451538086 184 714
0.33512210845947266 188 712
0.33956336975097656 192 710
0.3431830406188965 195 714
0.3470137119293213 198 714
0.3514821529388428 202 719
0.35713863372802734 205 716
0.3618040084838867 208 713
0.36557435989379883 211 712
0.3698916435241699 214 712
0.3734281063079834 218 711
0.3799557685852051 221 715
0.38352298736572266 224 718
0.3872809410095215 227 719
0.391721248626709 230 721
0.39550137519836426 234 719
0.40135622024536133 235 714
0.4050562381744385 238 717
0.40946507453918457 244 717
0.4152262210845947 245 719
0.4198744297027588 250 719
0.4234182834625244 252 720
0.42719483375549316 256 717
0.4335510730743408 260 714
0.4373140335083008 262 714
0.44175100326538086 266 715
0.4455146789550781 268 717
0.4498167037963867 271 720
0.45562219619750977 276 722
0.4601314067840576 278 722
0.463672399520874 281 717
0.4727017879486084 287 718
0.4762001037597656 290 719
0.4816746711730957 294 721
0.4853971004486084 297 722
0.49141979217529297 302 721
0.49507904052734375 303 718
0.49965500831604004 308 718
0.5055840015411377 312 718
0.5099260807037354 314 717
0.5134615898132324 317 720
0.5171992778778076 320 723
0.5216407775878906 324 721
0.52724289894104 327 720
0.5317234992980957 330 718
0.5354745388031006 333 720
0.5399456024169922 336 717
0.543510913848877 340 719
0.5500750541687012 343 724
0.5535926818847656 346 722
0.5573649406433105 349 719
0.561830997467041 352 724
0.5655522346496582 356 716
0.5714306831359863 359 719
0.5750644207000732 360 718
0.5794403553009033 366 719
0.5851945877075195 368 721
0.5897345542907715 372 724
0.5933840274810791 375 723
0.5972321033477783 378 718
0.6018376350402832 382 719
0.6074337959289551 385 716
0.6118729114532471 388 720
0.6155965328216553 391 721
0.6198854446411133 394 722
0.6256639957427979 398 722
0.6299829483032227 401 720
0.633549690246582 404 717
0.6372642517089844 406 716
0.6417322158813477 410 719
0.6473605632781982 414 720
0.6518466472625732 417 723
0.6555962562561035 420 724
0.6600515842437744 422 723
0.6635727882385254 425 720
0.6695923805236816 430 722
0.6731722354888916 431 719
0.6769025325775146 436 719
0.6832666397094727 440 724
0.687056303024292 443 722
0.6916019916534424 446 724
0.6953461170196533 447 718
0.6996476650238037 451 723
0.7054495811462402 456 719
0.709730863571167 458 720
0.7133297920227051 462 724
0.7170500755310059 464 726
0.7216837406158447 467 719
0.7273199558258057 472 722
0.7317855358123779 474 719
0.7355310916900635 477 720
0.7398300170898438 480 721
0.7434144020080566 484 721
0.749931812286377 487 723
0.7534477710723877 490 724
0.7571914196014404 493 722
0.7616376876831055 496 718
0.7653687000274658 498 722
0.7712428569793701 502 720
0.7748208045959473 504 721
0.7794642448425293 510 723
0.7852106094360352 512 722
0.7895727157592773 516 724
0.7931690216064453 518 723
0.7969427108764648 522 721
0.8015530109405518 526 720
0.8071942329406738 529 720
0.8116610050201416 532 722
0.8153715133666992 534 722
0.8196930885314941 538 722
0.8232419490814209 542 721
0.8298346996307373 545 722
0.8333950042724609 548 719
0.8371503353118896 551 716
0.8418500423431396 554 720
0.8455953598022461 558 722
0.8516006469726562 561 722
0.8553550243377686 562 725
0.8597071170806885 568 720
0.8655209541320801 571 716
0.8732271194458008 577 718
0.8769690990447998 580 720
0.8815972805023193 582 720
0.8872528076171875 587 722
0.8919286727905273 590 725
0.8956742286682129 593 720
0.9002294540405273 596 719
0.9037625789642334 598 720
0.9098694324493408 603 721
0.9134364128112793 607 725
0.9199864864349365 610 720
0.9235363006591797 613 723
0.9272606372833252 616 724
0.9318301677703857 618 719
0.9355523586273193 623 718
0.9414336681365967 626 718
0.9450855255126953 627 721
0.9494807720184326 633 721
0.9552125930786133 634 726
0.959766149520874 639 723
0.9633362293243408 642 719
0.9670755863189697 644 721
0.9715838432312012 649 719
0.977217435836792 652 717
0.981837272644043 655 718
0.9855833053588867 658 723
0.9898879528045654 660 721
0.9934141635894775 665 719
0.9999778270721436 668 721
