time angle speed
0 0 0
0.002658843994140625 0 0
0.008470296859741211 0 0
0.012176275253295898 0 -6
0.01663494110107422 -1 -15
0.02036881446838379 -1 -40
0.02493596076965332 -2 -32
0.030768632888793945 -4 -67
0.03509259223937988 -4 -47
0.03871607780456543 -6 -196
0.042478084564208984 -7 -243
0.04695844650268555 -9 -292
0.052584171295166016 -10 -298
0.057291269302368164 -12 -343
0.06533408164978027 -15 -375
0.07025027275085449 -16 -392
0.0762476921081543 -19 -415
0.0799553394317627 -21 -428
0.084747314453125 -24 -457
0.0906076431274414 -27 -473
0.09491539001464844 -29 -483
0.09850859642028809 -31 -489
0.10229730606079102 -33 -496
0.10679125785827637 -35 -509
0.11244392395019531 -38 -522
0.11713767051696777 -40 -531
0.12100076675415039 -43 -541
0.12530779838562012 -45 -552
0.12887144088745117 -48 -566
0.1349315643310547 -51 -570
0.1385328769683838 -53 -573
0.14232921600341797 -56 -580
0.14875459671020508 -59 -583
0.15254545211791992 -62 -589
0.15702509880065918 -64 -595
0.16077184677124023 -66 -598
0.1651458740234375 -69 -606
0.17098140716552734 -72 -613
0.17577314376831055 -75 -614
0.17927837371826172 -78 -617
0.18374347686767578 -80 -619
0.1873018741607666 -84 -620
0.19392609596252441 -86 -621
0.1977245807647705 -89 -624
0.2012338638305664 -91 -631
0.2058422565460205 -94 -633
0.20934414863586426 -98 -639
0.21641254425048828 -100 -640
0.22000789642333984 -103 -637
0.2246723175048828 -106 -636
0.22827601432800293 -108 -639
0.2345273494720459 -113 -639
0.23816156387329102 -114 -643
0.24193358421325684 -117 -647
0.2483692169189453 -122 -648
0.25215864181518555 -125 -652
0.256680965423584 -127 -650
0.2603921890258789 -129 -648
0.2648019790649414 -133 -651
0.2689535617828369 -136 -652
0.2759380340576172 -139 -656
0.27965688705444336 -142 -655
0.28394079208374023 -144 -658
0.2877683639526367 -147 -659
0.29130101203918457 -151 -658
0.2973461151123047 -154 -656
0.30112123489379883 -156 -656
0.30740785598754883 -160 -654
0.3111894130706787 -163 -659
0.3157529830932617 -166 -660
0.31932902336120605 -168 -661
0.32380056381225586 -171 -663
0.3296694755554199 -175 -665
0.3340461254119873 -178 -662
0.3378620147705078 -180 -659
0.3421201705932617 -184 -660
0.34690117835998535 -188 -662
0.35257720947265625 -191 -664
0.35724306106567383 -194 -668
0.36099982261657715 -196 -665
0.36531686782836914 -199 -663
0.36888742446899414 -202 -661
0.37579917907714844 -205 -659
0.37931084632873535 -208 -662
0.38378334045410156 -210 -662
0.38732433319091797 -213 -664
0.3910946846008301 -217 -668
0.396986722946167 -220 -666
0.40071821212768555 -222 -663
0.4051377773284912 -226 -663
0.4109787940979004 -229 -662
0.4156761169433594 -232 -660
0.41913342475891113 -234 -663
0.4231233596801758 -237 -662
0.4272346496582031 -241 -666
0.4338207244873047 -244 -666
0.4373924732208252 -246 -666
0.4411592483520508 -249 -664
0.4457106590270996 -252 -662
0.4512770175933838 -256 -662
0.45588159561157227 -258 -660
0.45961880683898926 -261 -669
0.46829915046691895 -266 -670
0.4720759391784668 -270 -667
0.47729039192199707 -273 -664
0.48107409477233887 -277 -662
0.4866600036621094 -280 -663
0.4938161373138428 -284 -661
0.497800350189209 -286 -666
0.5013189315795898 -289 -669
0.5059006214141846 -292 -671
0.5096273422241211 -294 -665
0.5152499675750732 -298 -667
0.5188503265380859 -301 -664
0.5225992202758789 -304 -665
0.529106616973877 -308 -665
0.5331294536590576 -310 -668
0.5373904705047607 -313 -671
0.5411722660064697 -316 -667
0.5457556247711182 -318 -664
0.5513789653778076 -322 -664
0.5560858249664307 -325 -662
0.5597662925720215 -328 -666
0.5640537738800049 -330 -664
0.5678439140319824 -333 -669
0.5744185447692871 -337 -669
0.5780479907989502 -340 -667
0.5818815231323242 -342 -669
0.5863900184631348 -345 -666
0.592047929763794 -350 -664
0.5967285633087158 -353 -662
0.600510835647583 -354 -664
0.6050491333007812 -358 -669
0.6086156368255615 -361 -671
0.6123685836791992 -364 -670
0.6170933246612549 -368 -667
0.6231212615966797 -370 -666
0.6272180080413818 -373 -668
0.6309661865234375 -376 -660
0.6353104114532471 -378 -666
0.6411423683166504 -382 -670
0.6457030773162842 -385 -669
0.6491644382476807 -388 -673
0.6531710624694824 -390 -670
0.6576869487762451 -393 -666
0.6643195152282715 -397 -666
0.667935848236084 -400 -665
0.6716437339782715 -402 -666
0.6761190891265869 -405 -668
0.6799039840698242 -408 -670
0.685798168182373 -412 -669
0.689307451248169 -414 -667
0.6937768459320068 -417 -664
0.6996822357177734 -421 -661
0.7039687633514404 -424 -663
0.7077867984771729 -426 -663
0.7113349437713623 -429 -664
0.7162497043609619 -432 -669
0.7219469547271729 -437 -671
0.7264738082885742 -438 -668
0.7300698757171631 -441 -664
0.7347068786621094 -445 -667
0.7383077144622803 -446 -663
0.7449085712432861 -452 -666
0.7485101222991943 -454 -666
0.7523164749145508 -457 -667
0.7568325996398926 -460 -668
0.760582685470581 -462 -668
0.7664763927459717 -465 -661
0.7700421810150146 -468 -664
0.7759215831756592 -472 -663
0.7797513008117676 -474 -667
0.784050703048706 -477 -667
0.7899022102355957 -481 -670
0.7945683002471924 -485 -667
0.798163652420044 -486 -670
0.8019223213195801 -489 -665
0.8064062595367432 -492 -664
0.8121161460876465 -497 -662
0.816652774810791 -500 -667
0.8202874660491943 -501 -664
0.8246984481811523 -505 -671
0.8282895088195801 -506 -668
0.8345029354095459 -512 -666
0.8381686210632324 -513 -665
0.8419525623321533 -518 -664
0.8482191562652588 -520 -664
0.8519906997680664 -524 -666
0.8565237522125244 -525 -668
0.8600971698760986 -528 -668
0.8671255111694336 -534 -664
0.874753475189209 -538 -664
0.8783366680145264 -540 -665
0.8821249008178711 -544 -666
0.886768102645874 -546 -667
0.8924307823181152 -550 -668
0.8972070217132568 -553 -670
0.900968074798584 -556 -669
0.9052574634552002 -558 -666
0.9087929725646973 -561 -666
0.9146099090576172 -565 -666
0.9182033538818359 -566 -663
0.9220876693725586 -570 -663
0.9265904426574707 -573 -667
0.9302423000335693 -574 -669
0.9346432685852051 -578 -667
0.9382221698760986 -580 -670
0.9419653415679932 -584 -668
0.946476936340332 -585 -664
0.950049877166748 -588 -665
0.9547092914581299 -592 -665
0.9583148956298828 -593 -667
0.9620907306671143 -597 -665
0.9673519134521484 -600 -670
0.9711418151855469 -602 -669
0.97568678855896 -605 -671
0.9791405200958252 -608 -667
0.9831802845001221 -610 -666
0.9872763156890869 -613 -667
0.9910516738891602 -616 -664
0.9957952499389648 -618 -665
0.9993269443511963 -621 -665
