time angle speed
0 0 0
0.0026438236236572266 0 0
0.008378982543945312 0 0
0.012075662612915039 0 -2
0.01635599136352539 -1 -7
0.019971132278442383 -2 -16
0.026009082794189453 -2 -45
0.029614686965942383 -3 -35
0.033380985260009766 -4 -75
0.03947257995605469 -6 -51
0.04326200485229492 -7 -239
0.047884464263916016 -8 -284
0.05212116241455078 -10 -321
0.05833864212036133 -13 -364
0.06206560134887695 -14 -398
0.06795358657836914 -16 -404
0.07156634330749512 -18 -433
0.07610225677490234 -21 -462
0.08182334899902344 -24 -501
0.08641862869262695 -27 -521
0.08998727798461914 -29 -534
0.09374117851257324 -32 -562
0.0981905460357666 -34 -564
0.10387396812438965 -38 -595
0.10835742950439453 -40 -602
0.11209464073181152 -42 -616
0.11662983894348145 -45 -629
0.1201939582824707 -48 -643
0.12624502182006836 -52 -653
0.12984991073608398 -53 -665
0.1336205005645752 -58 -680
0.13997769355773926 -62 -684
0.14374995231628418 -64 -692
0.14820337295532227 -67 -696
0.15184712409973145 -69 -710
0.15623974800109863 -73 -713
0.1621546745300293 -78 -727
0.16646480560302734 -80 -731
0.17003083229064941 -84 -734
0.1737668514251709 -86 -739
0.1783771514892578 -91 -748
0.18401098251342773 -94 -752
0.18850994110107422 -97 -758
0.1922602653503418 -100 -760
0.1965785026550293 -103 -768
0.20013213157653809 -108 -768
0.20669198036193848 -111 -769
0.21030020713806152 -114 -771
0.21405935287475586 -117 -775
0.21872186660766602 -120 -778
0.2224876880645752 -125 -786
0.2283616065979004 -128 -787
0.23208022117614746 -130 -786
0.23656225204467773 -136 -789
0.2424180507659912 -139 -790
0.2467653751373291 -142 -791
0.2503032684326172 -146 -797
0.25408172607421875 -149 -799
0.25856637954711914 -154 -798
0.26465606689453125 -157 -799
0.26876235008239746 -160 -800
0.27249979972839355 -163 -801
0.27682924270629883 -166 -800
0.2803945541381836 -171 -807
0.2872340679168701 -175 -807
0.29068446159362793 -178 -806
0.294689416885376 -181 -808
0.29892444610595703 -184 -808
0.30269789695739746 -189 -809
0.3085336685180664 -192 -811
0.31227922439575195 -196 -811
0.3165905475616455 -200 -813
0.32242298126220703 -204 -812
0.32680439949035645 -207 -811
0.33036017417907715 -210 -813
0.33415913581848145 -214 -816
0.34465956687927246 -222 -818
0.349261999130249 -225 -817
0.35277605056762695 -228 -814
0.3578007221221924 -232 -814
0.36139559745788574 -235 -816
0.36742401123046875 -240 -815
0.3709564208984375 -243 -819
0.3754429817199707 -246 -820
0.3813169002532959 -251 -817
0.3855912685394287 -254 -815
0.3894188404083252 -258 -816
0.3929171562194824 -261 -816
0.3975989818572998 -264 -820
0.4034230709075928 -269 -822
0.40793609619140625 -272 -819
0.4115025997161865 -276 -821
0.4161951541900635 -281 -820
0.41977357864379883 -282 -818
0.42634105682373047 -289 -819
0.4299185276031494 -292 -823
0.4336681365966797 -296 -822
0.43817138671875 -299 -821
0.4418163299560547 -300 -821
0.44776201248168945 -305 -817
0.4513382911682129 -308 -820
0.4577934741973877 -314 -823
0.46140551567077637 -317 -821
0.4658694267272949 -320 -821
0.4694859981536865 -324 -821
0.47321319580078125 -327 -820
0.47989702224731445 -333 -819
0.4837768077850342 -336 -822
0.48822712898254395 -340 -824
0.4919135570526123 -342 -822
0.4962756633758545 -346 -822
0.5021357536315918 -351 -817
0.5064520835876465 -355 -819
0.5100359916687012 -358 -820
0.5137894153594971 -361 -825
0.5182592868804932 -364 -823
0.5239503383636475 -370 -825
0.5284368991851807 -373 -822
0.5322389602661133 -376 -824
0.5367369651794434 -379 -821
0.540292501449585 -382 -820
0.5463461875915527 -388 -824
0.5499119758605957 -391 -824
0.5564038753509521 -396 -822
0.5622777938842773 -401 -819
0.5666000843048096 -404 -822
0.5701260566711426 -407 -820
0.5739409923553467 -411 -823
0.5784356594085693 -416 -826
0.5841128826141357 -419 -825
0.5886068344116211 -422 -821
0.5923569202423096 -426 -824
0.5968036651611328 -429 -822
0.6003601551055908 -434 -825
0.6073646545410156 -437 -824
0.610889196395874 -440 -824
0.6153647899627686 -444 -822
0.6189267635345459 -447 -820
0.6226978302001953 -452 -821
0.6285495758056641 -455 -824
0.6322743892669678 -458 -826
0.6365866661071777 -464 -823
0.6424267292022705 -467 -822
0.6467859745025635 -470 -822
0.6503250598907471 -473 -822
0.6540729999542236 -476 -820
0.6587138175964355 -482 -823
0.6652913093566895 -485 -826
0.6688659191131592 -488 -824
0.6727068424224854 -491 -822
0.6773083209991455 -494 -821
0.6808183193206787 -500 -823
0.6875848770141602 -503 -823
0.6912226676940918 -506 -827
0.6954965591430664 -510 -826
0.6993284225463867 -513 -827
0.7028424739837646 -518 -823
0.7087042331695557 -521 -823
0.7124617099761963 -524 -824
0.7183640003204346 -529 -826
0.7221434116363525 -532 -827
0.7264423370361328 -536 -827
0.7322931289672852 -541 -823
0.7367784976959229 -544 -820
0.7403321266174316 -551 -822
0.7485933303833008 -554 -821
0.7523479461669922 -559 -824
0.7583389282226562 -562 -824
0.7621281147003174 -566 -820
0.7665705680847168 -570 -821
0.7720973491668701 -574 -823
0.7765626907348633 -577 -824
0.7801220417022705 -580 -827
0.7838656902313232 -584 -825
0.7885141372680664 -587 -823
0.79225754737854 -590 -821
0.7965602874755859 -594 -820
0.8001363277435303 -597 -822
0.8038969039916992 -600 -823
0.8083376884460449 -604 -826
0.812077522277832 -605 -824
0.8163855075836182 -610 -824
0.8212337493896484 -613 -822
0.8255314826965332 -616 -821
0.8293039798736572 -620 -821
0.8328239917755127 -623 -822
0.8376765251159668 -626 -820
0.8413143157958984 -630 -827
0.845595121383667 -633 -825
0.8493702411651611 -636 -823
0.8529038429260254 -640 -822
0.8575727939605713 -643 -822
0.8612172603607178 -646 -820
0.865473747253418 -650 -826
0.870159387588501 -654 -827
0.8739864826202393 -658 -822
0.8784558773040771 -661 -823
0.882225513458252 -664 -822
0.8865349292755127 -668 -820
0.8901007175445557 -671 -823
0.8938748836517334 -674 -829
0.8985106945037842 -678 -825
0.9023644924163818 -681 -824
0.9066946506500244 -684 -824
0.9102504253387451 -687 -822
0.9139866828918457 -691 -818
0.9184753894805908 -694 -823
0.92330002784729 -697 -824
0.9277775287628174 -700 -826
0.9313540458679199 -704 -825
0.9356536865234375 -707 -827
0.9394598007202148 -710 -824
0.943183422088623 -714 -823
0.9476108551025391 -717 -823
0.9512810707092285 -720 -825
0.9555587768554688 -724 -823
0.9595308303833008 -727 -825
0.9633076190948486 -730 -823
0.9678134918212891 -734 -823
0.972252368927002 -738 -820
0.9765894412994385 -742 -825
0.9801285266876221 -745 -824
0.983900785446167 -748 -826
0.9883370399475098 -752 -826
0.9921011924743652 -755 -825
0.9965841770172119 -758 -822
